"Wavelength","Alexa Fluor 546 EM","Alexa Fluor 546 EX"
300,,0.3059
301,,0.2762
302,,0.2519
303,,0.2308
304,,0.2097
305,,0.1946
306,,0.1783
307,,0.163
308,,0.157
309,,0.1469
310,,0.1377
311,,0.134
312,,0.1329
313,,0.1286
314,,0.1272
315,,0.1256
316,,0.1243
317,,0.1226
318,,0.1202
319,,0.1194
320,,0.1179
321,,0.1157
322,,0.1135
323,,0.1178
324,,0.116
325,,0.1161
326,,0.1183
327,,0.1191
328,,0.1181
329,,0.1143
330,,0.114
331,,0.1136
332,,0.1143
333,,0.1132
334,,0.1147
335,,0.1143
336,,0.1133
337,,0.1123
338,,0.1111
339,,0.1089
340,,0.1083
341,,0.1083
342,,0.1071
343,,0.1035
344,,0.1031
345,,0.0993
346,,0.0956
347,,0.0928
348,,0.0894
349,,0.0856
350,,0.083
351,,0.0795
352,,0.0781
353,,0.0752
354,,0.0734
355,,0.0716
356,,0.0723
357,,0.0705
358,,0.0706
359,,0.072
360,,0.073
361,,0.0737
362,,0.0756
363,,0.0765
364,,0.078
365,,0.0774
366,,0.0761
367,,0.075
368,,0.0735
369,,0.0714
370,,0.0697
371,,0.0669
372,,0.0646
373,,0.0614
374,,0.0609
375,,0.0577
376,,0.056
377,,0.0533
378,,0.0511
379,,0.0497
380,,0.0482
381,,0.0467
382,,0.0465
383,,0.0457
384,,0.0432
385,,0.0443
386,,0.0433
387,,0.0435
388,,0.0434
389,,0.0431
390,,0.0432
391,,0.043
392,,0.0422
393,,0.0427
394,,0.0428
395,,0.0425
396,,0.0418
397,,0.0427
398,,0.0418
399,,0.0422
400,,0.041
401,,0.0413
402,,0.0402
403,,0.0403
404,,0.0389
405,,0.0388
406,,0.0382
407,,0.0376
408,,0.0373
409,,0.0376
410,,0.0372
411,,0.0369
412,,0.0365
413,,0.0359
414,,0.0348
415,,0.0354
416,,0.035
417,,0.0347
418,,0.0337
419,,0.0336
420,,0.033
421,,0.0321
422,,0.0324
423,,0.0326
424,,0.0313
425,,0.0314
426,,0.0304
427,,0.0293
428,,0.0306
429,,0.0294
430,,0.0284
431,,0.029
432,,0.0295
433,,0.0287
434,,0.029
435,,0.0297
436,,0.0294
437,,0.0278
438,,0.0274
439,,0.0269
440,,0.0269
441,,0.0265
442,,0.0267
443,,0.0272
444,,0.0276
445,,0.0267
446,,0.0285
447,,0.0282
448,,0.0278
449,,0.0281
450,,0.029
451,,0.0291
452,,0.0296
453,,0.0293
454,,0.0297
455,,0.0298
456,,0.0305
457,,0.0307
458,,0.0318
459,,0.0309
460,,0.0319
461,,0.0328
462,,0.034
463,,0.0338
464,,0.0356
465,,0.036
466,,0.0369
467,,0.0376
468,,0.0381
469,,0.0391
470,,0.04
471,,0.0413
472,,0.043
473,,0.0447
474,,0.0469
475,,0.0481
476,,0.0511
477,,0.052
478,,0.055
479,,0.0563
480,,0.0592
481,,0.0608
482,,0.0637
483,,0.0653
484,,0.0679
485,,0.0707
486,,0.0725
487,,0.0742
488,,0.0773
489,,0.0783
490,,0.0809
491,,0.0829
492,,0.0858
493,,0.0876
494,,0.0907
495,,0.0931
496,,0.0972
497,,0.0995
498,,0.104
499,,0.1085
500,,0.113
501,,0.1177
502,,0.1245
503,,0.1311
504,,0.1384
505,,0.1464
506,,0.1551
507,,0.1643
508,,0.174
509,,0.1846
510,,0.1954
511,,0.207
512,,0.219
513,,0.2301
514,,0.243
515,,0.2547
516,,0.2666
517,,0.2768
518,,0.2883
519,,0.2966
520,,0.3052
521,,0.3126
522,,0.319
523,,0.3229
524,,0.3261
525,,0.328
526,,0.3284
527,,0.3276
528,,0.327
529,,0.3257
530,0.027,0.3246
531,0.0189,0.3231
532,0.0105,0.3237
533,0.0081,0.3248
534,0.0085,0.3271
535,0.0095,0.3308
536,0.0116,0.3368
537,0.0136,0.344
538,0.0153,0.3548
539,0.0185,0.3664
540,0.0218,0.3812
541,0.026,0.397
542,0.0314,0.4174
543,0.0369,0.4389
544,0.0433,0.4644
545,0.0514,0.4906
546,0.0632,0.5209
547,0.0753,0.5519
548,0.093,0.5878
549,0.1108,0.6236
550,0.1336,0.6634
551,0.1577,0.7032
552,0.1863,0.7444
553,0.2183,0.7844
554,0.2546,0.8249
555,0.2935,0.8631
556,0.3379,0.8989
557,0.3849,0.9303
558,0.4292,0.9564
559,0.4791,0.9775
560,0.5301,0.9921
561,0.5899,1
562,0.6485,0.9995
563,0.7038,0.9924
564,0.7558,0.9771
565,0.8031,0.9548
566,0.8442,0.9254
567,0.89,0.89
568,0.9228,0.8491
569,0.9515,0.8036
570,0.9728,0.7547
571,0.9883,0.7047
572,1,0.6523
573,0.9973,0.6
574,0.9934,0.5471
575,0.9838,0.4969
576,0.9763,0.4475
577,0.9477,0.4015
578,0.9267,0.3577
579,0.9035,0.3167
580,0.8709,0.2782
581,0.8454,0.2436
582,0.8134,0.2132
583,0.7796,0.1863
584,0.7414,0.1618
585,0.7077,0.1406
586,0.6703,0.1224
587,0.6419,0.1067
588,0.611,0.0932
589,0.5786,0.0814
590,0.5528,0.0708
591,0.528,0.0625
592,0.5019,0.0553
593,0.4782,0.0492
594,0.4558,0.0439
595,0.4345,0.0396
596,0.4167,0.0352
597,0.3993,0.0323
598,0.3795,0.0295
599,0.3637,0.0268
600,0.3492,0.0253
601,0.3365,0.0237
602,0.3213,0.0225
603,0.3135,0.0207
604,0.2999,0.0205
605,0.2903,0.0192
606,0.2808,0.0192
607,0.2735,0.018
608,0.2634,0.0175
609,0.2626,0.0169
610,0.2568,0.0163
611,0.2509,0.0158
612,0.2466,0.0158
613,0.2456,0.0154
614,0.2404,0.0148
615,0.2366,0.0145
616,0.2342,0.0151
617,0.23,0.015
618,0.2272,0.0142
619,0.2253,0.014
620,0.2247,0.0141
621,0.2185,0.0143
622,0.2172,0.0141
623,0.2127,0.0145
624,0.2092,0.0139
625,0.2045,0.014
626,0.2016,0.0135
627,0.1982,0.0135
628,0.1935,0.0135
629,0.1889,0.0133
630,0.1845,0.0132
631,0.1803,0.0125
632,0.1719,0.0129
633,0.1663,0.0131
634,0.1615,0.0129
635,0.1573,0.013
636,0.1516,0.0132
637,0.1394,0.013
638,0.1361,0.013
639,0.1293,0.0126
640,0.1244,0.0128
641,0.1176,0.0132
642,0.1121,0.0127
643,0.1073,0.0122
644,0.1028,0.0126
645,0.0991,0.0126
646,0.0951,0.0127
647,0.0906,0.0123
648,0.0886,0.0132
649,0.0846,0.0131
650,0.0818,0.0128
651,0.078,0.0126
652,0.0751,0.0128
653,0.0726,0.0131
654,0.0703,0.0125
655,0.0663,0.0129
656,0.0639,0.0127
657,0.062,0.0127
658,0.0594,0.0128
659,0.0571,0.0124
660,0.0553,0.0128
661,0.0533,0.0124
662,0.051,0.0127
663,0.0493,0.0125
664,0.0473,0.0128
665,0.0461,0.0127
666,0.0441,0.0124
667,0.0431,0.0133
668,0.0412,0.0131
669,0.0405,0.0127
670,0.0381,0.0128
671,0.0371,0.0129
672,0.0371,0.0124
673,0.0355,0.0123
674,0.0346,0.012
675,0.0341,0.0128
676,0.0328
677,0.0316
678,0.0326
679,0.0312
680,0.0298
681,0.0294
682,0.0294
683,0.0283
684,0.0273
685,0.0267
686,0.0242
687,0.0248
688,0.0249
689,0.0233
690,0.0228
691,0.0241
692,0.0222
693,0.0223
694,0.0215
695,0.0216
696,0.021
697,0.0194
698,0.0203
699,0.0198
700,0.0183