"Wavelength","ATTO 550 EM","ATTO 550 AB"
300,,0.0980909084
301,,0.0967727268
302,,0.0951168828904762
303,,0.0931233766714286
304,,0.090792208142857
305,,0.0880129869696969
306,,0.0850735940086579
307,,0.0818398281948051
308,,0.0783549807532467
309,,0.0748398295194804
310,,0.0708917769870129
311,,0.0668614732727272
312,,0.0628571435714285
313,,0.0586536792727272
314,,0.0546450206233765
315,,0.0507575745454545
316,,0.0472077914805194
317,,0.044125541073593
318,,0.04117748908658
319,,0.0388051953852813
320,,0.036987014
321,,0.035329005056277
322,,0.0339696971298701
323,,0.0325367964805194
324,,0.0312337663116883
325,,0.0297965368311688
326,,0.0282034631082251
327,,0.0265844158441558
328,,0.0252207796536796
329,,0.0240649353852814
330,,0.0232683982380952
331,,0.0227142855324675
332,,0.0227748917445887
333,,0.0234069267272727
334,,0.0244372298701298
335,,0.0258484849264069
336,,0.0275367967445887
337,,0.0292640693333333
338,,0.0308398269870129
339,,0.0319826845194805
340,,0.0329826849350649
341,,0.0337489192770562
342,,0.0343246765757575
343,,0.0347056279610389
344,,0.0352640689480519
345,,0.0357532455757575
346,,0.0365454528311688
347,,0.0373506478571428
348,,0.0384545443203463
349,,0.0396320345584415
350,,0.0411904768268398
351,,0.0429740266406926
352,,0.045450217103896
353,,0.0481385289826839
354,,0.0509826847878787
355,,0.0535930741731601
356,,0.0557142858311688
357,,0.0571774888268397
358,,0.0581255402077921
359,,0.0582077907619047
360,,0.0576666654891774
361,,0.0563419909393939
362,,0.0544285713506493
363,,0.0520995669870129
364,,0.0495064934285714
365,,0.0465974022510822
366,,0.0436926402597402
367,,0.0406753245324675
368,,0.03785281408658
369,,0.0352467532770562
370,,0.0328787875974026
371,,0.0305887441774891
372,,0.0284155841601731
373,,0.0263593072121212
374,,0.0246666666709956
375,,0.0235411258311688
376,,0.0224761904761904
377,,0.0214935062034632
378,,0.0202857142813853
379,,0.018835497982684
380,,0.0171861474415584
381,,0.0159090912294372
382,,0.0147748921168831
383,,0.0140389612683982
384,,0.0137229436623376
385,,0.0139004329480519
386,,0.0144199137922078
387,,0.0151774898961039
388,,0.0156926415844156
389,,0.0159220787229437
390,,0.0157792214675324
391,,0.015510823021645
392,,0.015510823021645
393,,0.0155064941038961
394,,0.0157402605108225
395,,0.0161688321991342
396,,0.0164632045541125
397,,0.0166277066277056
398,,0.0167705639523809
399,,0.0170909099696969
400,,0.017168832012987
401,,0.0172034637965368
402,,0.0173939396060606
403,,0.0176060603939394
404,,0.0177965362034632
405,,0.018012985987013
406,,0.017969696030303
407,,0.017952380047619
408,,0.0177186144632034
409,,0.0174025976580086
410,,0.0170000007229437
411,,0.0166883128398268
412,,0.0163116895238095
413,,0.0160000008614718
414,,0.0155974032251082
415,,0.0153722947445887
416,,0.0151688313073593
417,,0.0148311688008658
418,,0.0146277055367965
419,,0.0144025974025974
420,,0.014
421,,0.0135974025974026
422,,0.0132813852813853
423,,0.0131385281385281
424,,0.012969696969697
425,,0.0129090909090909
426,,0.013
427,,0.0130909090909091
428,,0.0129393939393939
429,,0.0128311688311688
430,,0.0127662337662337
431,,0.0127445887445887
432,,0.0127662337662337
433,,0.0128311688311688
434,,0.0129393939393939
435,,0.013
436,,0.012969696969697
437,,0.0131385281385281
438,,0.0133722943722944
439,,0.0136277056277056
440,,0.0138614718614718
441,,0.0139393939393939
442,,0.0141515151515151
443,,0.0140779220779221
444,,0.0142034632034632
445,,0.0143030302121212
446,,0.0144848484545454
447,,0.01490476204329
448,,0.0154329008051948
449,,0.0158484856580086
450,,0.0164588753809524
451,,0.0169090915714286
452,,0.0175108228268398
453,,0.018108224991342
454,,0.0188787875281385
455,,0.0199090904761904
456,,0.0209090904978355
457,,0.0219696969696969
458,,0.0231385283679653
459,,0.0243722949264069
460,,0.0255367972251082
461,,0.0267402602337662
462,,0.0281385282121212
463,,0.0295108227878787
464,,0.0308787878354978
465,,0.0325064932337662
466,,0.0342813848658008
467,,0.0361385276623376
468,,0.0379696962727272
469,,0.0399090899696969
470,,0.041909090038961
471,,0.0439696967186147
472,,0.0460476184978354
473,,0.0483419912727272
474,,0.0507662336753246
475,,0.0531428566320346
476,,0.0556277053419913
477,,0.0579999991774891
478,,0.0603722941558441
479,,0.0627662339610389
480,,0.065203463056277
481,,0.0677056283809523
482,,0.0702034643463202
483,,0.0726753260129869
484,,0.0753419929783549
485,,0.0780476190129869
486,,0.0808787885670995
487,,0.0836969699350648
488,,0.0868051940216449
489,,0.0903766224761904
490,,0.0943636357316016
491,,0.0990259736536795
492,,0.104359307134199
493,,0.110428570714286
494,,0.116991342203463
495,,0.124116882298701
496,,0.131761905367965
497,,0.140147187835498
498,,0.148852816190476
499,,0.158147188701298
500,,0.167852816190476
501,,0.178238096926407
502,,0.189064935670995
503,,0.200251081341991
504,,0.211536795627705
505,,0.223043291558441
506,,0.234272729264069
507,,0.245056278008658
508,,0.255402596233766
509,,0.265298696450216
510,,0.274328998008658
511,,0.282567091558441
512,,0.289818171428571
513,,0.296372285714285
514,,0.301766227186147
515,,0.306112551818181
516,,0.309584415584415
517,,0.312129873333333
518,,0.313852821645021
519,,0.31507360064935
520,,0.316000002554112
521,,0.316926404025974
522,,0.318147181731601
523,0.00113333332121212,0.319870127878787
524,0.000933333330303031,0.322324675324675
525,0.000852380958225108,0.325584418484848
526,0.000890476204978355,0.33000866
527,0.00104761907056277,0.33587013047619
528,0.00134199138225108,0.343645022251082
529,0.0016753247060606,0.353077921212121
530,0.00211255418268398,0.364709955281385
531,0.00267532473419913,0.378554111428571
532,0.00325108227359307,0.394670991904761
533,0.0039264070103896,0.413125536926406
534,0.00498701307792207,0.433896093939393
535,0.00620779230346319,0.457069255108224
536,0.00789610406103895,0.482645022424242
537,0.00980519477965367,0.510251089177488
538,0.0120865798627705,0.540229454632034
539,0.0147316013580086,0.572303049090908
540,0.0180432899385281,0.606086587489177
541,0.0220779225852814,0.641597404545454
542,0.0272207799740259,0.67810389056277
543,0.0336623382597402,0.715389607142856
544,0.041277057099567,0.752930738528137
545,0.0505800867705627,0.790251084199133
546,0.0617359303419913,0.827034641904761
547,0.074861471125541,0.862194809220778
548,0.0905584409610388,0.89498268116883
549,0.10892207765368,0.924718609523808
550,0.130177489900433,0.950190476969696
551,0.15529004156277,0.970714292640691
552,0.183173158363636,0.985489188614717
553,0.214597401645021,0.993995675627704
554,0.249385282554112,0.995926403073592
555,0.287303036060606,0.990878776103895
556,0.328571433376623,0.978727266320345
557,0.371969702987012,0.959575750779219
558,0.417385293549783,0.933519477489176
559,0.464948062683982,0.901086579220778
560,0.513896108441558,0.862835500259739
561,0.563138523766233,0.819757572640692
562,0.612904755844155,0.772835486580085
563,0.66223376134199,0.723268390173159
564,0.711168824415583,0.672125538528138
565,0.757683972943722,0.620480516103895
566,0.800822505194804,0.569121209740259
567,0.841038959870129,0.518865802337662
568,0.877865798701297,0.470030308831168
569,0.908463200173159,0.423268403160173
570,0.93568831164502,0.379021648138528
571,0.957558447316016,0.337402604069264
572,0.975021654805194,0.298878791038961
573,0.988038967402596,0.263705627402597
574,0.994991349913418,0.231883115108225
575,0.998718625974025,0.203168829437229
576,0.998099580432899,0.177411255670995
577,0.992649357532466,0.154640691376623
578,0.983731598874458,0.134779219385281
579,0.971675318268397,0.117155845220779
580,0.956432889523808,0.101831169601731
581,0.938095224112553,0.0886406932770561
582,0.916917738571427,0.0771774897445886
583,0.895787878225107,0.0669264075367964
584,0.873316023636362,0.0579696975411255
585,0.849021655670994,0.0499393939653679
586,0.823632038614717,0.0429523811168831
587,0.797186152683982,0.0367489177835497
588,0.769606061645021,0.0313549788354978
589,0.741441561774891,0.0269307358614718
590,0.715125539870129,0.023194805
591,0.689012992813852,0.0200865799610389
592,0.663393944285713,0.0174329003471861
593,0.637623383506493,0.0151298697567099
594,0.61346753142857,0.0130952378987013
595,0.5887359304329,0.0112207791839827
596,0.565961037748917,0.00955411273636362
597,0.543748923809523,0.00816017328225107
598,0.523298702294372,0.0070173161103896
599,0.503073597489177,0.00601731609870129
600,0.483727272077921,0.00516017323852813
601,0.465181815324675,0.00473593077229436
602,0.448160169610389,0.00428138536060605
603,0.432389607229437,0.00390909102164502
604,0.418160175714285,0.00368831181385281
605,0.404619054545454,0.00331168841038961
606,0.391969705411255,0.00300000004155844
607,0.381000004242424,0.00259740262857143
608,0.370389609567099,0.00228138532597402
609,0.36094805095238,0.00213852822467532
610,0.351787879177489,0.00196969707272727
611,0.34404329047619,0.00190909101818182
612,0.336835501168831,0.0020000001
613,0.329805195281385,0.0020909092
614,0.323333333203463,0.00203030313333333
615,0.317917744242424,0.00177056284761905
616,0.312987004632034,0.00159740265714286
617,0.308125535670995,0.00151082256190476
618,0.30340692090909,0.00160173166190476
619,0.298922074588744,0.00153679659047619
620,0.294341988614718,0.00160173166190476
621,0.289147184891774,0.00179653687619047
622,0.284640694199134,0.00183549791904762
623,0.280220782077922,0.00176623384285714
624,0.275740258614718,0.00183116891428571
625,0.270718615800865,0.00193939403333333
626,0.265532467056277,0.0020909092
627,0.259800866190476,0.0020909092
628,0.254320347142857,0.00203030313333333
629,0.248510824242424,0.00186147194761905
630,0.243060607792207,0.00162770569047619
631,0.237748919480519,0.00137229440952381
632,0.231974023939394,0.00113852815238095
633,0.226268397316017,0.000969696966666665
634,0.220532468744588,0.000909090899999999
635,0.214056279567099,0.000999999999999999
636,0.207787885497835,0.000999999999999999
637,0.201012991298701,0.000999999999999999
638,0.194722946060606,0.000999999999999999
639,0.188385281341991,0.000999999999999999
640,0.181891771125541,0.000999999999999999
641,0.175766231125541
642,0.170155844155844
643,0.164294374025974
644,0.158896106450216
645,0.152982686926407
646,0.147571431948052
647,0.142307362251082
648,0.136883118528138
649,0.131476192813853
650,0.126324677012987
651,0.121532468138528
652,0.117012986103896
653,0.112683982593073
654,0.108614718675325
655,0.104601731588744
656,0.100445887528138
657,0.096571429164502
658,0.0925584425238094
659,0.0887575777186146
660,0.0853852837316016
661,0.0824199156926406
662,0.0795108245541125
663,0.0765064955930735
664,0.0735584436623376
665,0.0711082268181817
666,0.0687402606363635
667,0.066190477069264
668,0.0639653676233765
669,0.0618181809393939
670,0.0598831159090908
671,0.0578744583896103
672,0.056082251047619
673,0.0546147189220778
674,0.0532943727792207
675,0.0517056279740259
676,0.0501125536796536
677,0.0487359303549783
678,0.0475108219956709
679,0.0462813847662337
680,0.0452251077532467
681,0.0442337662380952
682,0.0431082254502164
683,0.0418917754242424
684,0.0406753252077922
685,0.0397445893722943
686,0.0387662339177489
687,0.0378311686103896
688,0.0369393934978354
689,0.0360909085367965
690,0.035000000060606
691,0.0340000006320346
692,0.0329090915844155
693,0.0319696976277056
694,0.031047619008658
695,0.0304328995454545
696,0.0297056267359307
697,0.029064934069264
698,0.0284242422597402
699,0.0276969699826839
700,0.0267056282900433
701,0.0258917755800865
702,0.0250779226320346
703,0.0244632036017316
704,0.0235367965064935
705,0.0228311687402597
706,0.022077922077922
707,0.0214329005238095
708,0.0207662337965368
709,0.0202337659134199
710,0.0195670991341991
711,0.0188311684805195
712,0.018138528021645
713,0.0176017319177489
714,0.0169090915714286
715,0.0163679662900433
716,0.0160000008095238
717,0.0155411259134199
718,0.0150606061991342
719,0.0145367965064935
720,0.0142337661428571
721,0.0138874458874459
722,0.0131428571428571
723,0.0125974025974026
724,0.0121385281385281
725,0.0117445887627705
726,0.0113939394
727,0.0109740259463203
728,0.0107965367402597
729,0.0104632033437229
730,0.0099090907090909
731,0.0095974023168831
732,0.00937229395584414
733,0.00916883077229436
734,0.00883116853593072
735,0.00862770552554111
736,0.0084025975108225
737,0.00800000026147185
738,0.00759740294718614
739,0.00737229472857142
740,0.00707792229956709
741,0.00689177507792207
742,0.00670562786709956
743,0.00660606076666666
744,0.00639393953333332
745,0.00620346332380951
746,0.00616883129480519
747,0.00609090920303029
748,0.00577056283376623
749,0.00562770565324675
750,0.0054632034103896
751,0.00516883108744588
752,0.0047402597030303
753,0.00459740257272727
754,0.00454112557878787
755,0.00437229446060605
756,0.00422510835757575
757,0.00414285729999999
758,0.00416883131818181
759,0.00406060624242424
760,0.00400000024545454
761,0.00403030323636363
762,0.00386147203376623
763,0.00353679664415584
764,0.00343290051948052
765,0.00330735936883116
766,0.00320346324415584
767,0.00316450219740259
768,0.00323376628051948
769,0.0031688312025974
770,0.00306060607272727
771,0.00290909089090909
772,0.00309090908181818
773,0.00293939394545454
774,0.00283116884805194
775,0.00276623378961039
776,0.00274458877012987
777,0.00285714287142857
778,0.00286147187532467
779,0.00280086582077922
780,0.00271861474675324
781,0.00237229443506493
782,0.00213852822467532
783,0.00196969707272727
784,0.00190909101818182
785,0.0020000001
786,0.0020000001
787,0.0020000001
788,0.0020000001
789,0.0020000001
790,0.0020000001
791,0.0020000001
792,0.0020909092
793,0.00193939403333333
794,0.00183116891428571
795,0.00185714294285714
796,0.00168398275238095
797,0.00159740265714286
798,0.00159740265714286
799,0.00177489185238095
800,0.00188744597619047
801,0.00169264076190476
802,0.00156709962380952
803,0.00146320350952381
804,0.00113852815238095
805,0.000969696966666665
806,0.000909090899999999
807,0.000999999999999999
808,0.000999999999999999
809,0.000999999999999999
810,0.000999999999999999
811,0.000999999999999999
812,0.000999999999999999
813,0.000999999999999999
814,0.000999999999999999
815,0.000999999999999999
816,0.000999999999999999
817,0.000999999999999999
818,0.000999999999999999
819,0.000999999999999999
820,0.000999999999999999
821,0.000999999999999999
822,0.000999999999999999
823,0.000999999999999999
824,0.000999999999999999
825,0.000999999999999999
826,0.000999999999999999
827,0.000999999999999999
828,0.000999999999999999
829,0.000999999999999999
830,0.000999999999999999
831,0.000999999999999999
832,0.000999999999999999
833,0.000999999999999999
834,0.000999999999999999
835,0.000999999999999999
836,0.000999999999999999
837,0.000999999999999999
838,0.000999999999999999
839,0.000999999999999999
840,0.000999999999999999
841,0.000999999999999999
842,0.000999999999999999
843,0.000999999999999999
844,0.000999999999999999
845,0.000999999999999999
846,0.000999999999999999
847,0.000999999999999999
848,0.000999999999999999