"Wavelength","ATTO 488 EM","ATTO 488 AB"
300,,0.147987879878788
301,,0.151763637636364
302,,0.155184416844156
303,,0.158250217502164
304,,0.160961039610389
305,,0.163428570779221
306,,0.165480517532467
307,,0.167099564761905
308,,0.168004326709956
309,,0.168311686017316
310,,0.167675323246753
311,,0.166233763679653
312,,0.163658006320346
313,,0.159861469264069
314,,0.154818180909091
315,,0.148896107099567
316,,0.142285718311688
317,,0.135242429134199
318,,0.127952385935065
319,,0.120627709593073
320,,0.113372296406926
321,,0.105956709662338
322,,0.0987272713376622
323,,0.0917619048787878
324,,0.0855367966623375
325,,0.0797965367142856
326,,0.0752640682987012
327,,0.0719350636666666
328,,0.0696969694112553
329,,0.0683766237445886
330,,0.0680259742034631
331,,0.0683463215887445
332,,0.0690173179090908
333,,0.0697402612683982
334,,0.0706580087619047
335,,0.0714458863679653
336,,0.0717792197316016
337,,0.0719956699264068
338,,0.071809522095238
339,,0.0713073584372293
340,,0.0703766242683982
341,,0.0694155858008657
342,,0.0683809542251081
343,,0.0670735946883116
344,,0.0654718629999999
345,,0.0636406944329004
346,,0.0613549793766233
347,,0.0589480532943722
348,,0.0563722957575757
349,,0.0540000004545454
350,,0.0516277058831168
351,,0.0491428569740259
352,,0.0466753236580086
353,,0.0443116873030302
354,,0.0421861463766233
355,,0.040341991056277
356,,0.0384458872987012
357,,0.0367402599567099
358,,0.0350476196147186
359,,0.0334805199610389
360,,0.0319264069740259
361,,0.0309393935974026
362,,0.0299870124025974
363,,0.0292034625714285
364,,0.0283030297748917
365,,0.0275757579220779
366,,0.0268441565974026
367,,0.0262640701861471
368,,0.0256147194242424
369,,0.0252943726666666
370,,0.0247056278441558
371,,0.0242943722640692
372,,0.0237056276147186
373,,0.0232034632034632
374,,0.0227662337662337
375,,0.0223722943722943
376,,0.022
377,,0.0216277056277056
378,,0.0211428571428571
379,,0.0208571429480519
380,,0.0203722944025974
381,,0.0199999998614718
382,,0.0196277052554112
383,,0.0192337654242424
384,,0.0187965358744588
385,,0.0182034624502164
386,,0.0177662334199134
387,,0.0173722946277056
388,,0.0169090916320346
389,,0.0165974036580086
390,,0.0162813864632034
391,,0.0162294383203463
392,,0.016000001030303
393,,0.0157705636320346
394,,0.0157186153463203
395,,0.0154025977748918
396,,0.0150000001385281
397,,0.0145974025670995
398,,0.0141904760995671
399,,0.0141082251082251
400,,0.0141082251082251
401,,0.0142813852813853
402,,0.0146277056277056
403,,0.0148614718614718
404,,0.015030303030303
405,,0.0149999999090909
406,,0.0149696969393939
407,,0.0151385282770563
408,,0.0152813856536796
409,,0.0155064943160173
410,,0.0159696978917749
411,,0.0164502172034632
412,,0.0169696972251082
413,,0.0175064932207792
414,,0.0183722937878788
415,,0.0190779213896104
416,,0.0198008652467532
417,,0.0206753245367965
418,,0.0215627705021645
419,,0.0227056279480519
420,,0.0240173162164502
421,,0.0255627705670995
422,,0.0273636362164502
423,,0.0291125538571428
424,,0.0310779216666666
425,,0.0329696967792207
426,,0.0348787876666666
427,,0.0370476193246753
428,,0.0393419914242424
429,,0.0416753241645021
430,,0.0441125534718614
431,,0.0466753241731601
432,,0.0494328997619047
433,,0.051987012090909
434,,0.054800865108225
435,,0.0575844155757575
436,,0.0607142862121211
437,,0.0638138536017315
438,,0.0670822525800865
439,,0.0705844176103895
440,,0.0743419932987012
441,,0.0779567121948051
442,,0.0818484872510821
443,,0.0858355000519479
444,,0.090268400125541
445,,0.0949437240692639
446,,0.100147186588744
447,,0.10585281365368
448,,0.111965368450216
449,,0.118792207277056
450,,0.126333331645021
451,,0.134476189047619
452,,0.143510819350649
453,,0.152995667878788
454,,0.163086575454545
455,,0.17363202978355
456,,0.18445887069264
457,,0.196034627792208
458,,0.207896101861472
459,,0.220160170865801
460,,0.232675323896104
461,,0.245294371948052
462,,0.257917746103896
463,,0.270398266883117
464,,0.282389611082251
465,,0.294099567575757
466,,0.30500433060606
467,,0.315129867099567
468,,0.324341991212121
469,,0.333056273160173
470,,0.34124242034632
471,,0.348999999870129
472,,0.356757575584415
473,,0.364852814069264
474,,0.373354979870129
475,0.00111515151757576,0.382826839783549
476,0.00091212120939394,0.393298703939393
477,0.000867099565930736,0.40499567012987
478,0.000980086587186147,0.418298699783549
479,0.00125108227316017,0.433372296883116
480,0.00173593077878788,0.450558439783549
481,0.00219047627619047,0.469865793679653
482,0.00287878798744588,0.491774885584415
483,0.00355411272207792,0.516437216883116
484,0.00450216464199134,0.54338960025974
485,0.00574025975930735,0.572688299047618
486,0.00735064948484847,0.604012977965367
487,0.00952813870346319,0.637268404545454
488,0.0123073593341991,0.671857150389609
489,0.0156580090948052,0.707337664155843
490,0.0198787884502164,0.743645025108224
491,0.0251774895116883,0.780255403333332
492,0.0318701297359307,0.816541116450215
493,0.0401125546839826,0.852077907359306
494,0.0506623382380952,0.885896088571427
495,0.0632943726969696,0.917207786536795
496,0.0787575759004328,0.944805189437228
497,0.0980129864718613,0.967683978138527
498,0.120268399,0.98501298168831
499,0.146411256744589,0.995999997619046
500,0.176632035515151,0.999714286277055
501,0.210588748930736,0.995679658268397
502,0.248935069264069,0.983428580129869
503,0.29145454991342,0.962679668398267
504,0.33903463025974,0.933532475021644
505,0.390800855757575,0.896575763463202
506,0.443883106493506,0.852623369913419
507,0.499835487316017,0.803073584155843
508,0.556874443722943,0.74913851134199
509,0.613852805714285,0.692268385887445
510,0.669666662857142,0.633822506536796
511,0.7235974004329,0.57516450103896
512,0.774181816839826,0.517333331385281
513,0.820688307056276,0.461285719956709
514,0.862025970259739,0.407987017229437
515,0.899025970606059,0.358303034069264
516,0.93023376164502,0.312601732683982
517,0.957233765757574,0.27110823082251
518,0.976445893506492,0.233969704199134
519,0.98997403181818,0.201121216709956
520,0.995822517359306,0.17228571808658
521,0.998398268528137,0.146926410800866
522,0.997095234718613,0.124770565311688
523,0.990090904805193,0.105701299463203
524,0.979134198961038,0.0893160181861471
525,0.96645022151515,0.0753896124025973
526,0.949510835281384,0.0637186168181817
527,0.929558448917748,0.0539653696277056
528,0.906978359567098,0.0458354988701298
529,0.884506499999999,0.0388787883809523
530,0.860844163809523,0.0330000003463203
531,0.834489189826839,0.0282121214848484
532,0.807393955670995,0.0241038962294372
533,0.781160193376622,0.0206839825281385
534,0.754727287835497,0.0177142855376623
535,0.72790044099567,0.0151774888770563
536,0.701415594935064,0.0130346317714286
537,0.675692649696969,0.0112683980995671
538,0.650770561991341,0.00992640694329003
539,0.62638095103896,0.00878787876320345
540,0.602160168095237,0.00787878793246752
541,0.580021643809523,0.00704761915584415
542,0.558783544718614,0.00625108239437229
543,0.539199129437229,0.00564502175108224
544,0.519987012640692,0.00534199126796536
545,0.502857136709956,0.00507792198744588
546,0.48634631047619,0.00483116876666666
547,0.470744579783549,0.00453679653030302
548,0.455727267922077,0.00446320356969696
549,0.442160174242424,0.00416883133333333
550,0.429017314761904,0.00383116901255411
551,0.417571429047618,0.00362770577142857
552,0.406432901125541,0.00340259747402597
553,0.396471859047619,0.00300000004155844
554,0.386636365194805,0.00259740262857143
555,0.376848484199134,0.00228138532597402
556,0.367441559350649,0.00222943732467532
557,0.357999999134199,0.0020000001060606
558,0.34854978090909,0.00177056286580086
559,0.339705629480519,0.00162770569047619
560,0.330939393939393,0.00128138530952381
561,0.3222987004329,0.00110822511904762
562,0.313709956926406,0.00119913421904762
563,0.305424241904761,0.00131168834285714
564,0.297225109870129,0.00148917753809524
565,0.289000002034632,0.00139826843809524
566,0.280683986666666,0.00137229440952381
567,0.272454553852813,0.0013679654047619
568,0.264489182337662,0.00143290047619047
569,0.255969699826839,0.00156709962380952
570,0.247740261731601,0.00172294379523809
571,0.23970562995671,0.00165800872380952
572,0.23157576073593,0.00146320350952381
573,0.223623378917749,0.00113852815238095
574,0.215424245844156,0.000969696966666665
575,0.207506496709956,0.000909090899999999
576,0.1997359304329,0.000999999999999999
577,0.191935064025974,0.000999999999999999
578,0.184411254502164,0.000999999999999999
579,0.177051947748918,0.000999999999999999
580,0.169943725238095,0.000999999999999999
581,0.163281389307359,0.000999999999999999
582,0.156601736493506,0.000999999999999999
583,0.150593077575757,0.000999999999999999
584,0.144813857445887,0.000999999999999999
585,0.139112558095238,0.000999999999999999
586,0.133536798571428,0.000999999999999999
587,0.127818183463203,0.000999999999999999
588,0.122220781558441,0.000999999999999999
589,0.11683117051948,0.000999999999999999
590,0.111935065632034,0.000999999999999999
591,0.107398267428571,0.000999999999999999
592,0.103376623480519,0.000999999999999999
593,0.0992294367229436,0.000999999999999999
594,0.0954675317662336,0.000999999999999999
595,0.0914285702987012,0.000999999999999999
596,0.0879783542467531,0.000999999999999999
597,0.0844285718701297,0.000999999999999999
598,0.0813766245757575,0.000999999999999999
599,0.0783809537402596,0.000999999999999999
600,0.0755757596796536,0.000999999999999999
601,0.0726753260129869,0.000999999999999999
602,0.0698787883722943,0.000999999999999999
603,0.0671601727445887,0.000999999999999999
604,0.0649653673419913,0.000999999999999999
605,0.0625627706233765,0.000999999999999999
606,0.0605064937402597,0.000999999999999999
607,0.0585974028571428,0.000999999999999999
608,0.056593074073593,0.000999999999999999
609,0.054826840103896,0.000999999999999999
610,0.0528787879870129,0.000999999999999999
611,0.0511904759350649,0.000999999999999999
612,0.0499177481601731,0.000999999999999999
613,0.0483116879999999,0.000999999999999999
614,0.0467705624761904,0.000999999999999999
615,0.0452251081255411
616,0.0437445885367965
617,0.0423073591688311
618,0.0408008659523809
619,0.0394458869610389
620,0.0384632026536796
621,0.0371688302683982
622,0.0358311682121212
623,0.0345367964675324
624,0.0333722944545454
625,0.0321385279740259
626,0.0309696969307359
627,0.0299090906623376
628,0.0289999999264069
629,0.028000000012987
630,0.0270000005844155
631,0.0260000006883117
632,0.0249090914632034
633,0.0239696971082251
634,0.0231385281082251
635,0.0223722943722943
636,0.0215367965670995
637,0.0208311686926407
638,0.0201688306147186
639,0.0194632027748917
640,0.0185367959523809
641,0.0178311686363636
642,0.0170779222727273
643,0.0163419919264069
644,0.0157359314242424
645,0.0153722949264069
646,0.0150303031688311
647,0.0144891774588744
648,0.0137705626796537
649,0.0132294372294372
650,0.0125108225108225
651,0.0118787878787879
652,0.0115064935064935
653,0.0113722943904762
654,0.0112597402839827
655,0.0108614718398268
656,0.0103982682961039
657,0.0100909088181818
658,0.00954112521904761
659,0.00896969670216449
660,0.00850649338008657
661,0.00837229447445886
662,0.00816883146406925
663,0.00783116922770562
664,0.00753679693506493
665,0.00737229464675324
666,0.00722943746623376
667,0.00700000019696969
668,0.00677056293852813
669,0.00662770579047618
670,0.0063722945095238
671,0.00622943736147185
672,0.00600000010303029
673,0.00577056283376623
674,0.00562770565324675
675,0.00537229434675324
676,0.00513852806623376
677,0.00496969686363636
678,0.00499999985454545
679,0.00503030292121211
680,0.0048614718030303
681,0.00462770563939393
682,0.00437229446060605
683,0.00413852829696969
684,0.00396969717878787
685,0.00390909113636363
686,0.0040909093090909
687,0.00403030323636363
688,0.00386147203376623
689,0.00362770575324675
690,0.00337229444675324
691,0.00313852816623376
692,0.00296969696363636
693,0.00290909089090909
694,0.003
695,0.003
696,0.003
697,0.00309090908181818
698,0.00303030302727272
699,0.00286147187532467
700,0.00262770566493506
701,0.00237229443506493
702,0.00213852822467532
703,0.00196969707272727
704,0.00190909101818182
705,0.0020000001
706,0.0020000001
707,0.0020000001
708,0.0020000001
709,0.0020000001
710,0.0020000001
711,0.0020909092
712,0.00203030313333333
713,0.00186147194761905
714,0.00162770569047619
715,0.00137229440952381
716,0.00113852815238095
717,0.000969696966666665
718,0.000909090899999999
719,0.000999999999999999
720,0.000999999999999999
721,0.000999999999999999
722,0.000999999999999999
723,0.000999999999999999
724,0.000999999999999999
725,0.000999999999999999
726,0.000999999999999999
727,0.000999999999999999
728,0.000999999999999999
729,0.000999999999999999
730,0.000999999999999999
731,0.000999999999999999
732,0.000999999999999999
733,0.000999999999999999
734,0.000999999999999999
735,0.000999999999999999
736,0.000999999999999999
737,0.000999999999999999
738,0.000999999999999999
739,0.000999999999999999
740,0.000999999999999999
741,0.000999999999999999
742,0.000999999999999999
743,0.000999999999999999
744,0.000999999999999999
745,0.000999999999999999
746,0.000999999999999999
747,0.000999999999999999
748,0.000999999999999999
749,0.000999999999999999
750,0.000999999999999999
751,0.000999999999999999
752,0.000999999999999999
753,0.000999999999999999
754,0.000999999999999999
755,0.000999999999999999
756,0.000999999999999999
757,0.000999999999999999
758,0.000999999999999999
759,0.000999999999999999
760,0.000999999999999999
761,0.000999999999999999
762,0.000999999999999999
763,0.000999999999999999
764,0.000999999999999999
765,0.000999999999999999
766,0.000999999999999999
767,0.000999999999999999
768,0.000999999999999999
769,0.000999999999999999
770,0.000999999999999999
771,0.000999999999999999